Angle,Intensity
15.006565,30
15.019695,41
15.032826,50
15.045956,32
15.059086,46
15.072217,46
15.085347,37
15.098477,41
15.111607,51
15.124738,37
15.137868,41
15.150998,34
15.164129,37
15.177259,45
15.190389,43
15.203519,37
15.21665,43
15.22978,36
15.24291,40
15.256041,38
15.269171,42
15.282301,47
15.295431,52
15.308562,39
15.321692,44
15.334822,46
15.347952,38
15.361083,43
15.374213,31
15.387343,47
15.400474,39
15.413604,48
15.426734,30
15.439864,36
15.452995,40
15.466125,52
15.479255,30
15.492386,36
15.505516,34
15.518646,34
15.531776,50
15.544907,44
15.558037,34
15.571167,31
15.584298,34
15.597428,43
15.610558,35
15.623688,44
15.636819,32
15.649949,36
15.663079,29
15.67621,38
15.68934,48
15.70247,39
15.7156,42
15.728731,37
15.741861,42
15.754991,44
15.768122,46
15.781252,47
15.794382,39
15.807512,38
15.820643,38
15.833773,25
15.846903,28
15.860034,27
15.873164,37
15.886294,55
15.899424,38
15.912555,27
15.925685,37
15.938815,43
15.951945,38
15.965076,34
15.978206,30
15.991336,36
16.004467,35
16.017597,34
16.030727,29
16.043857,37
16.056988,34
16.070118,42
16.083248,47
16.096379,38
16.109509,35
16.122639,32
16.135769,29
16.1489,26
16.16203,43
16.17516,40
16.188291,35
16.201421,43
16.214551,34
16.227681,39
16.240812,40
16.253942,33
16.267072,40
16.280203,34
16.293333,29
16.306463,26
16.319593,41
16.332724,40
16.345854,46
16.358984,35
16.372115,41
16.385245,34
16.398375,29
16.411505,40
16.424636,34
16.437766,34
16.450896,37
16.464027,27
16.477157,33
16.490287,40
16.503417,24
16.516548,50
16.529678,27
16.542808,32
16.555938,36
16.569069,44
16.582199,35
16.595329,30
16.60846,41
16.62159,42
16.63472,45
16.64785,38
16.660981,31
16.674111,40
16.687241,29
16.700372,32
16.713502,30
16.726632,39
16.739762,44
16.752893,35
16.766023,38
16.779153,47
16.792284,38
16.805414,34
16.818544,33
16.831674,39
16.844805,34
16.857935,32
16.871065,35
16.884196,26
16.897326,23
16.910456,31
16.923586,30
16.936717,42
16.949847,29
16.962977,31
16.976108,32
16.989238,33
17.002368,31
17.015498,32
17.028629,30
17.041759,33
17.054889,40
17.06802,36
17.08115,34
17.09428,27
17.10741,36
17.120541,27
17.133671,36
17.146801,37
17.159931,29
17.173062,25
17.186192,29
17.199322,33
17.212453,32
17.225583,33
17.238713,23
17.251843,29
17.264974,31
17.278104,33
17.291234,36
17.304365,32
17.317495,24
17.330625,34
17.343755,31
17.356886,28
17.370016,26
17.383146,31
17.396277,30
17.409407,41
17.422537,42
17.435667,18
17.448798,29
17.461928,42
17.475058,35
17.488189,33
17.501319,33
17.514449,34
17.527579,31
17.54071,21
17.55384,30
17.56697,34
17.580101,30
17.593231,34
17.606361,32
17.619491,24
17.632622,35
17.645752,47
17.658882,25
17.672013,38
17.685143,36
17.698273,23
17.711403,31
17.724534,30
17.737664,28
17.750794,33
17.763925,31
17.777055,39
17.790185,33
17.803315,27
17.816446,33
17.829576,34
17.842706,29
17.855836,36
17.868967,27
17.882097,28
17.895227,35
17.908358,28
17.921488,24
17.934618,26
17.947748,32
17.960879,30
17.974009,34
17.987139,27
18.00027,23
18.0134,31
18.02653,28
18.03966,38
18.052791,39
18.065921,33
18.079051,26
18.092182,31
18.105312,23
18.118442,31
18.131572,32
18.144703,38
18.157833,25
18.170963,18
18.184094,27
18.197224,21
18.210354,28
18.223484,32
18.236615,29
18.249745,21
18.262875,31
18.276006,31
18.289136,26
18.302266,36
18.315396,24
18.328527,28
18.341657,34
18.354787,31
18.367918,25
18.381048,37
18.394178,36
18.407308,37
18.420439,17
18.433569,24
18.446699,35
18.459829,31
18.47296,26
18.48609,34
18.49922,22
18.512351,33
18.525481,14
18.538611,36
18.551741,35
18.564872,35
18.578002,31
18.591132,35
18.604263,26
18.617393,29
18.630523,30
18.643653,30
18.656784,29
18.669914,23
18.683044,27
18.696175,38
18.709305,33
18.722435,29
18.735565,23
18.748696,31
18.761826,24
18.774956,27
18.788087,29
18.801217,33
18.814347,14
18.827477,30
18.840608,28
18.853738,23
18.866868,31
18.879999,21
18.893129,33
18.906259,23
18.919389,19
18.93252,19
18.94565,23
18.95878,27
18.971911,31
18.985041,23
18.998171,33
19.011301,29
19.024432,28
19.037562,21
19.050692,31
19.063822,26
19.076953,26
19.090083,22
19.103213,21
19.116344,38
19.129474,31
19.142604,23
19.155734,38
19.168865,26
19.181995,38
19.195125,29
19.208256,25
19.221386,28
19.234516,25
19.247646,23
19.260777,22
19.273907,18
19.287037,27
19.300168,20
19.313298,19
19.326428,26
19.339558,22
19.352689,23
19.365819,23
19.378949,32
19.39208,27
19.40521,22
19.41834,19
19.43147,19
19.444601,31
19.457731,17
19.470861,25
19.483992,38
19.497122,23
19.510252,31
19.523382,17
19.536513,32
19.549643,27
19.562773,32
19.575904,32
19.589034,30
19.602164,25
19.615294,26
19.628425,32
19.641555,24
19.654685,21
19.667815,28
19.680946,34
19.694076,26
19.707206,29
19.720337,25
19.733467,42
19.746597,29
19.759727,18
19.772858,28
19.785988,23
19.799118,24
19.812249,30
19.825379,27
19.838509,18
19.851639,28
19.86477,34
19.8779,26
19.89103,34
19.904161,23
19.917291,27
19.930421,22
19.943551,20
19.956682,25
19.969812,30
19.982942,24
19.996073,21
20.009203,28
20.022333,29
20.035463,26
20.048594,21
20.061724,23
20.074854,29
20.087985,21
20.101115,23
20.114245,34
20.127375,31
20.140506,29
20.153636,32
20.166766,25
20.179897,29
20.193027,24
20.206157,30
20.219287,21
20.232418,27
20.245548,30
20.258678,31
20.271808,26
20.284939,23
20.298069,20
20.311199,23
20.32433,28
20.33746,24
20.35059,34
20.36372,16
20.376851,29
20.389981,26
20.403111,25
20.416242,35
20.429372,23
20.442502,28
20.455632,23
20.468763,22
20.481893,21
20.495023,24
20.508154,30
20.521284,25
20.534414,25
20.547544,22
20.560675,19
20.573805,24
20.586935,30
20.600066,23
20.613196,32
20.626326,31
20.639456,30
20.652587,32
20.665717,30
20.678847,30
20.691978,26
20.705108,25
20.718238,27
20.731368,17
20.744499,25
20.757629,16
20.770759,31
20.78389,24
20.79702,28
20.81015,21
20.82328,24
20.836411,28
20.849541,29
20.862671,21
20.875801,30
20.888932,22
20.902062,19
20.915192,23
20.928323,24
20.941453,24
20.954583,26
20.967713,17
20.980844,17
20.993974,19
21.007104,28
21.020235,14
21.033365,27
21.046495,23
21.059625,32
21.072756,34
21.085886,20
21.099016,22
21.112147,21
21.125277,28
21.138407,28
21.151537,28
21.164668,22
21.177798,22
21.190928,28
21.204059,26
21.217189,14
21.230319,25
21.243449,18
21.25658,25
21.26971,23
21.28284,19
21.295971,23
21.309101,28
21.322231,27
21.335361,16
21.348492,22
21.361622,22
21.374752,21
21.387883,15
21.401013,21
21.414143,18
21.427273,21
21.440404,18
21.453534,22
21.466664,15
21.479794,27
21.492925,32
21.506055,16
21.519185,20
21.532316,22
21.545446,27
21.558576,19
21.571706,24
21.584837,24
21.597967,22
21.611097,26
21.624228,22
21.637358,22
21.650488,30
21.663618,23
21.676749,14
21.689879,24
21.703009,27
21.71614,17
21.72927,15
21.7424,22
21.75553,18
21.768661,15
21.781791,16
21.794921,18
21.808052,22
21.821182,26
21.834312,19
21.847442,21
21.860573,20
21.873703,20
21.886833,32
21.899964,20
21.913094,16
21.926224,20
21.939354,25
21.952485,25
21.965615,25
21.978745,21
21.991876,22
22.005006,22
22.018136,10
22.031266,16
22.044397,21
22.057527,20
22.070657,14
22.083788,17
22.096918,25
22.110048,22
22.123178,15
22.136309,21
22.149439,16
22.162569,14
22.175699,18
22.18883,29
22.20196,23
22.21509,30
22.228221,21
22.241351,17
22.254481,21
22.267611,23
22.280742,17
22.293872,25
22.307002,20
22.320133,25
22.333263,21
22.346393,19
22.359523,20
22.372654,18
22.385784,17
22.398914,27
22.412045,21
22.425175,23
22.438305,28
22.451435,21
22.464566,22
22.477696,24
22.490826,16
22.503957,27
22.517087,22
22.530217,24
22.543347,27
22.556478,22
22.569608,24
22.582738,14
22.595869,15
22.608999,20
22.622129,29
22.635259,19
22.64839,23
22.66152,25
22.67465,12
22.687781,21
22.700911,26
22.714041,27
22.727171,27
22.740302,15
22.753432,22
22.766562,21
22.779692,26
22.792823,28
22.805953,20
22.819083,24
22.832214,26
22.845344,19
22.858474,10
22.871604,18
22.884735,16
22.897865,23
22.910995,24
22.924126,22
22.937256,10
22.950386,18
22.963516,14
22.976647,15
22.989777,21
23.002907,17
23.016038,19
23.029168,20
23.042298,29
23.055428,21
23.068559,22
23.081689,20
23.094819,17
23.10795,15
23.12108,17
23.13421,32
23.14734,17
23.160471,20
23.173601,23
23.186731,24
23.199862,19
23.212992,21
23.226122,15
23.239252,27
23.252383,15
23.265513,27
23.278643,18
23.291774,13
23.304904,28
23.318034,16
23.331164,15
23.344295,18
23.357425,24
23.370555,24
23.383685,23
23.396816,20
23.409946,18
23.423076,20
23.436207,18
23.449337,15
23.462467,19
23.475597,18
23.488728,14
23.501858,16
23.514988,18
23.528119,18
23.541249,20
23.554379,30
23.567509,14
23.58064,17
23.59377,18
23.6069,19
23.620031,17
23.633161,25
23.646291,22
23.659421,16
23.672552,19
23.685682,22
23.698812,23
23.711943,19
23.725073,20
23.738203,17
23.751333,15
23.764464,20
23.777594,27
23.790724,19
23.803855,16
23.816985,25
23.830115,9
23.843245,17
23.856376,10
23.869506,24
23.882636,19
23.895767,20
23.908897,11
23.922027,19
23.935157,18
23.948288,17
23.961418,22
23.974548,16
23.987678,23
24.000809,22
24.013939,27
24.027069,15
24.0402,14
24.05333,16
24.06646,24
24.07959,24
24.092721,20
24.105851,21
24.118981,18
24.132112,16
24.145242,22
24.158372,8
24.171502,19
24.184633,13
24.197763,13
24.210893,16
24.224024,11
24.237154,12
24.250284,10
24.263414,27
24.276545,17
24.289675,18
24.302805,16
24.315936,19
24.329066,21
24.342196,17
24.355326,13
24.368457,21
24.381587,21
24.394717,19
24.407848,18
24.420978,14
24.434108,17
24.447238,22
24.460369,15
24.473499,16
24.486629,25
24.49976,26
24.51289,15
24.52602,18
24.53915,18
24.552281,14
24.565411,8
24.578541,10
24.591671,13
24.604802,13
24.617932,16
24.631062,22
24.644193,17
24.657323,16
24.670453,21
24.683583,20
24.696714,25
24.709844,18
24.722974,13
24.736105,12
24.749235,19
24.762365,13
24.775495,19
24.788626,16
24.801756,10
24.814886,10
24.828017,18
24.841147,24
24.854277,17
24.867407,24
24.880538,14
24.893668,10
24.906798,16
24.919929,10
24.933059,16
24.946189,15
24.959319,15
24.97245,14
24.98558,23
24.99871,12
25.011841,11
25.024971,14
25.038101,13
25.051231,13
25.064362,14
25.077492,18
25.090622,23
25.103753,17
25.116883,25
25.130013,22
25.143143,11
25.156274,15
25.169404,12
25.182534,17
25.195664,18
25.208795,22
25.221925,22
25.235055,19
25.248186,16
25.261316,16
25.274446,22
25.287576,25
25.300707,12
25.313837,15
25.326967,19
25.340098,21
25.353228,17
25.366358,15
25.379488,12
25.392619,17
25.405749,12
25.418879,12
25.43201,15
25.44514,15
25.45827,24
25.4714,12
25.484531,19
25.497661,23
25.510791,13
25.523922,16
25.537052,17
25.550182,10
25.563312,21
25.576443,13
25.589573,16
25.602703,12
25.615834,13
25.628964,13
25.642094,17
25.655224,14
25.668355,17
25.681485,10
25.694615,21
25.707746,15
25.720876,16
25.734006,17
25.747136,15
25.760267,7
25.773397,15
25.786527,17
25.799658,13
25.812788,15
25.825918,11
25.839048,12
25.852179,8
25.865309,18
25.878439,7
25.891569,15
25.9047,16
25.91783,8
25.93096,18
25.944091,28
25.957221,21
25.970351,8
25.983481,14
25.996612,10
26.009742,14
26.022872,11
26.036003,20
26.049133,14
26.062263,14
26.075393,17
26.088524,7
26.101654,18
26.114784,10
26.127915,15
26.141045,18
26.154175,16
26.167305,14
26.180436,17
26.193566,16
26.206696,9
26.219827,18
26.232957,5
26.246087,13
26.259217,16
26.272348,14
26.285478,20
26.298608,12
26.311739,15
26.324869,19
26.337999,13
26.351129,16
26.36426,15
26.37739,16
26.39052,24
26.403651,13
26.416781,16
26.429911,16
26.443041,21
26.456172,17
26.469302,15
26.482432,15
26.495562,23
26.508693,19
26.521823,17
26.534953,15
26.548084,20
26.561214,21
26.574344,22
26.587474,14
26.600605,23
26.613735,17
26.626865,15
26.639996,15
26.653126,18
26.666256,14
26.679386,14
26.692517,18
26.705647,16
26.718777,19
26.731908,15
26.745038,16
26.758168,20
26.771298,16
26.784429,22
26.797559,12
26.810689,22
26.82382,14
26.83695,14
26.85008,18
26.86321,18
26.876341,18
26.889471,19
26.902601,10
26.915732,19
26.928862,15
26.941992,18
26.955122,16
26.968253,19
26.981383,12
26.994513,26
27.007644,19
27.020774,16
27.033904,15
27.047034,18
27.060165,14
27.073295,16
27.086425,8
27.099555,14
27.112686,20
27.125816,13
27.138946,16
27.152077,20
27.165207,9
27.178337,13
27.191467,11
27.204598,16
27.217728,10
27.230858,14
27.243989,12
27.257119,14
27.270249,14
27.283379,10
27.29651,19
27.30964,10
27.32277,11
27.335901,18
27.349031,7
27.362161,12
27.375291,16
27.388422,16
27.401552,16
27.414682,14
27.427813,11
27.440943,18
27.454073,14
27.467203,17
27.480334,15
27.493464,11
27.506594,17
27.519725,15
27.532855,13
27.545985,13
27.559115,12
27.572246,12
27.585376,13
27.598506,10
27.611637,14
27.624767,12
27.637897,16
27.651027,8
27.664158,15
27.677288,17
27.690418,15
27.703548,12
27.716679,12
27.729809,11
27.742939,14
27.75607,12
27.7692,22
27.78233,5
27.79546,8
27.808591,10
27.821721,15
27.834851,7
27.847982,10
27.861112,13
27.874242,10
27.887372,16
27.900503,17
27.913633,18
27.926763,14
27.939894,21
27.953024,18
27.966154,9
27.979284,19
27.992415,13
28.005545,13
28.018675,15
28.031806,11
28.044936,14
28.058066,5
28.071196,11
28.084327,15
28.097457,16
28.110587,14
28.123718,19
28.136848,15
28.149978,11
28.163108,16
28.176239,16
28.189369,9
28.202499,12
28.21563,10
28.22876,13
28.24189,12
28.25502,12
28.268151,18
28.281281,5
28.294411,14
28.307541,17
28.320672,10
28.333802,12
28.346932,13
28.360063,15
28.373193,16
28.386323,13
28.399453,9
28.412584,22
28.425714,14
28.438844,9
28.451975,11
28.465105,17
28.478235,8
28.491365,14
28.504496,7
28.517626,18
28.530756,15
28.543887,8
28.557017,14
28.570147,12
28.583277,10
28.596408,9
28.609538,12
28.622668,13
28.635799,8
28.648929,11
28.662059,12
28.675189,20
28.68832,16
28.70145,13
28.71458,8
28.727711,8
28.740841,15
28.753971,14
28.767101,10
28.780232,16
28.793362,14
28.806492,12
28.819623,24
28.832753,12
28.845883,23
28.859013,12
28.872144,15
28.885274,11
28.898404,10
28.911534,12
28.924665,9
28.937795,17
28.950925,8
28.964056,4
28.977186,16
28.990316,13
29.003446,16
29.016577,11
29.029707,10
29.042837,15
29.055968,12
29.069098,7
29.082228,11
29.095358,11
29.108489,15
29.121619,13
29.134749,11
29.14788,12
29.16101,8
29.17414,6
29.18727,7
29.200401,13
29.213531,15
29.226661,11
29.239792,18
29.252922,10
29.266052,9
29.279182,13
29.292313,11
29.305443,13
29.318573,15
29.331704,11
29.344834,5
29.357964,20
29.371094,18
29.384225,15
29.397355,14
29.410485,6
29.423616,9
29.436746,18
29.449876,14
29.463006,13
29.476137,8
29.489267,10
29.502397,11
29.515527,18
29.528658,16
29.541788,11
29.554918,9
29.568049,12
29.581179,8
29.594309,15
29.607439,5
29.62057,5
29.6337,12
29.64683,10
29.659961,5
29.673091,17
29.686221,12
29.699351,10
29.712482,21
29.725612,17
29.738742,17
29.751873,12
29.765003,15
29.778133,15
29.791263,7
29.804394,15
29.817524,16
29.830654,13
29.843785,9
29.856915,15
29.870045,11
29.883175,3
29.896306,12
29.909436,10
29.922566,16
29.935697,12
29.948827,10
29.961957,9
29.975087,11
29.988218,3
30.001348,11
30.014478,7
30.027609,5
30.040739,9
30.053869,6
30.066999,5
30.08013,12
30.09326,10
30.10639,11
30.119521,12
30.132651,7
30.145781,13
30.158911,7
30.172042,9
30.185172,3
30.198302,12
30.211432,7
30.224563,16
30.237693,8
30.250823,15
30.263954,12
30.277084,11
30.290214,14
30.303344,10
30.316475,13
30.329605,9
30.342735,13
30.355866,10
30.368996,18
30.382126,15
30.395256,11
30.408387,15
30.421517,12
30.434647,12
30.447778,7
30.460908,10
30.474038,6
30.487168,8
30.500299,10
30.513429,7
30.526559,12
30.53969,6
30.55282,6
30.56595,15
30.57908,13
30.592211,8
30.605341,11
30.618471,12
30.631602,9
30.644732,6
30.657862,12
30.670992,12
30.684123,11
30.697253,6
30.710383,11
30.723514,7
30.736644,10
30.749774,6
30.762904,16
30.776035,11
30.789165,12
30.802295,12
30.815425,9
30.828556,9
30.841686,15
30.854816,19
30.867947,8
30.881077,16
30.894207,12
30.907337,14
30.920468,21
30.933598,5
30.946728,2
30.959859,5
30.972989,11
30.986119,15
30.999249,15
31.01238,13
31.02551,8
31.03864,9
31.051771,9
31.064901,7
31.078031,11
31.091161,6
31.104292,8
31.117422,21
31.130552,7
31.143683,7
31.156813,11
31.169943,10
31.183073,10
31.196204,5
31.209334,16
31.222464,13
31.235595,7
31.248725,20
31.261855,6
31.274985,5
31.288116,9
31.301246,20
31.314376,10
31.327507,10
31.340637,9
31.353767,11
31.366897,6
31.380028,20
31.393158,16
31.406288,10
31.419418,15
31.432549,13
31.445679,10
31.458809,12
31.47194,11
31.48507,10
31.4982,12
31.51133,4
31.524461,6
31.537591,16
31.550721,11
31.563852,14
31.576982,6
31.590112,8
31.603242,9
31.616373,5
31.629503,11
31.642633,11
31.655764,11
31.668894,13
31.682024,8
31.695154,12
31.708285,14
31.721415,12
31.734545,14
31.747676,11
31.760806,10
31.773936,9
31.787066,10
31.800197,9
31.813327,6
31.826457,8
31.839588,10
31.852718,11
31.865848,9
31.878978,12
31.892109,10
31.905239,6
31.918369,10
31.9315,18
31.94463,11
31.95776,10
31.97089,13
31.984021,7
31.997151,7
32.010281,9
32.023411,9
32.036542,11
32.049672,13
32.062802,12
32.075933,7
32.089063,9
32.102193,6
32.115323,8
32.128454,13
32.141584,13
32.154714,6
32.167845,9
32.180975,13
32.194105,11
32.207235,12
32.220366,15
32.233496,9
32.246626,8
32.259757,12
32.272887,15
32.286017,10
32.299147,16
32.312278,13
32.325408,11
32.338538,10
32.351669,8
32.364799,17
32.377929,12
32.391059,8
32.40419,14
32.41732,5
32.43045,16
32.443581,17
32.456711,4
32.469841,7
32.482971,14
32.496102,13
32.509232,5
32.522362,6
32.535493,14
32.548623,6
32.561753,10
32.574883,7
32.588014,9
32.601144,11
32.614274,8
32.627404,6
32.640535,5
32.653665,6
32.666795,12
32.679926,19
32.693056,16
32.706186,12
32.719316,5
32.732447,5
32.745577,7
32.758707,7
32.771838,7
32.784968,15
32.798098,6
32.811228,4
32.824359,8
32.837489,10
32.850619,7
32.86375,2
32.87688,7
32.89001,7
32.90314,14
32.916271,9
32.929401,10
32.942531,7
32.955662,6
32.968792,10
32.981922,5
32.995052,14
33.008183,7
33.021313,13
33.034443,9
33.047574,12
33.060704,10
33.073834,8
33.086964,10
33.100095,6
33.113225,13
33.126355,5
33.139486,5
33.152616,11
33.165746,8
33.178876,7
33.192007,13
33.205137,15
33.218267,12
33.231397,13
33.244528,5
33.257658,10
33.270788,8
33.283919,15
33.297049,7
33.310179,8
33.323309,9
33.33644,13
33.34957,8
33.3627,13
33.375831,14
33.388961,8
33.402091,9
33.415221,6
33.428352,9
33.441482,9
33.454612,7
33.467743,11
33.480873,2
33.494003,10
33.507133,8
33.520264,6
33.533394,10
33.546524,3
33.559655,10
33.572785,8
33.585915,13
33.599045,8
33.612176,13
33.625306,9
33.638436,2
33.651567,13
33.664697,13
33.677827,9
33.690957,6
33.704088,7
33.717218,8
33.730348,8
33.743479,5
33.756609,10
33.769739,15
33.782869,4
33.796,7
33.80913,11
33.82226,6
33.83539,9
33.848521,16
33.861651,10
33.874781,15
33.887912,15
33.901042,7
33.914172,11
33.927302,6
33.940433,11
33.953563,11
33.966693,12
33.979824,9
33.992954,7
34.006084,7
34.019214,11
34.032345,9
34.045475,11
34.058605,13
34.071736,8
34.084866,9
34.097996,6
34.111126,15
34.124257,11
34.137387,7
34.150517,16
34.163648,5
34.176778,11
34.189908,9
34.203038,12
34.216169,9
34.229299,7
34.242429,5
34.25556,9
34.26869,9
34.28182,7
34.29495,10
34.308081,14
34.321211,8
34.334341,12
34.347472,9
34.360602,7
34.373732,13
34.386862,12
34.399993,9
34.413123,14
34.426253,11
34.439384,7
34.452514,16
34.465644,13
34.478774,11
34.491905,11
34.505035,9
34.518165,8
34.531295,8
34.544426,14
34.557556,17
34.570686,17
34.583817,7
34.596947,10
34.610077,10
34.623207,14
34.636338,13
34.649468,12
34.662598,12
34.675729,10
34.688859,9
34.701989,17
34.715119,17
34.72825,17
34.74138,21
34.75451,8
34.767641,25
34.780771,9
34.793901,9
34.807031,15
34.820162,20
34.833292,14
34.846422,16
34.859553,16
34.872683,33
34.885813,16
34.898943,26
34.912074,13
34.925204,26
34.938334,17
34.951465,19
34.964595,20
34.977725,20
34.990855,25
35.003986,27
35.017116,29
35.030246,29
35.043377,18
35.056507,34
35.069637,32
35.082767,59
35.095898,37
35.109028,36
35.122158,46
35.135288,46
35.148419,40
35.161549,50
35.174679,55
35.18781,50
35.20094,65
35.21407,49
35.2272,64
35.240331,54
35.253461,69
35.266591,59
35.279722,76
35.292852,77
35.305982,72
35.319112,87
35.332243,70
35.345373,79
35.358503,84
35.371634,78
35.384764,92
35.397894,90
35.411024,100
35.424155,100
35.437285,96
35.450415,89
35.463546,126
35.476676,113
35.489806,118
35.502936,128
35.516067,129
35.529197,141
35.542327,153
35.555458,169
35.568588,189
35.581718,184
35.594848,187
35.607979,203
35.621109,219
35.634239,216
35.64737,255
35.6605,227
35.67363,272
35.68676,241
35.699891,252
35.713021,301
35.726151,283
35.739281,318
35.752412,354
35.765542,365
35.778672,385
35.791803,386
35.804933,380
35.818063,411
35.831193,487
35.844324,410
35.857454,468
35.870584,473
35.883715,481
35.896845,458
35.909975,495
35.923105,472
35.936236,464
35.949366,512
35.962496,489
35.975627,489
35.988757,506
36.001887,490
36.015017,445
36.028148,439
36.041278,433
36.054408,428
36.067539,409
36.080669,372
36.093799,346
36.106929,307
36.12006,313
36.13319,278
36.14632,275
36.159451,248
36.172581,235
36.185711,217
36.198841,193
36.211972,178
36.225102,167
36.238232,157
36.251363,147
36.264493,161
36.277623,119
36.290753,129
36.303884,112
36.317014,117
36.330144,99
36.343274,108
36.356405,104
36.369535,82
36.382665,83
36.395796,84
36.408926,81
36.422056,68
36.435186,77
36.448317,66
36.461447,67
36.474577,88
36.487708,73
36.500838,63
36.513968,61
36.527098,57
36.540229,49
36.553359,51
36.566489,71
36.57962,46
36.59275,64
36.60588,46
36.61901,53
36.632141,53
36.645271,51
36.658401,57
36.671532,51
36.684662,34
36.697792,42
36.710922,35
36.724053,33
36.737183,31
36.750313,46
36.763444,33
36.776574,35
36.789704,39
36.802834,28
36.815965,23
36.829095,29
36.842225,25
36.855356,38
36.868486,18
36.881616,29
36.894746,26
36.907877,29
36.921007,21
36.934137,20
36.947267,18
36.960398,14
36.973528,20
36.986658,22
36.999789,20
37.012919,34
37.026049,15
37.039179,12
37.05231,17
37.06544,17
37.07857,18
37.091701,20
37.104831,9
37.117961,14
37.131091,13
37.144222,13
37.157352,13
37.170482,2
37.183613,15
37.196743,19
37.209873,11
37.223003,13
37.236134,13
37.249264,15
37.262394,5
37.275525,12
37.288655,20
37.301785,12
37.314915,11
37.328046,7
37.341176,18
37.354306,9
37.367437,14
37.380567,12
37.393697,7
37.406827,17
37.419958,7
37.433088,12
37.446218,13
37.459349,10
37.472479,9
37.485609,15
37.498739,11
37.51187,6
37.525,10
37.53813,4
37.55126,5
37.564391,4
37.577521,7
37.590651,6
37.603782,19
37.616912,9
37.630042,10
37.643172,6
37.656303,11
37.669433,7
37.682563,7
37.695694,8
37.708824,4
37.721954,9
37.735084,14
37.748215,12
37.761345,11
37.774475,3
37.787606,7
37.800736,3
37.813866,6
37.826996,14
37.840127,11
37.853257,2
37.866387,6
37.879518,6
37.892648,5
37.905778,10
37.918908,9
37.932039,3
37.945169,6
37.958299,9
37.97143,11
37.98456,8
37.99769,3
38.01082,5
38.023951,10
38.037081,8
38.050211,5
38.063342,10
38.076472,6
38.089602,12
38.102732,7
38.115863,3
38.128993,13
38.142123,13
38.155254,6
38.168384,10
38.181514,14
38.194644,6
38.207775,5
38.220905,7
38.234035,7
38.247165,5
38.260296,4
38.273426,3
38.286556,12
38.299687,5
38.312817,4
38.325947,5
38.339077,10
38.352208,11
38.365338,4
38.378468,7
38.391599,9
38.404729,5
38.417859,7
38.430989,6
38.44412,10
38.45725,5
38.47038,8
38.483511,4
38.496641,9
38.509771,9
38.522901,11
38.536032,11
38.549162,3
38.562292,10
38.575423,5
38.588553,7
38.601683,5
38.614813,5
38.627944,5
38.641074,7
38.654204,7
38.667335,4
38.680465,8
38.693595,6
38.706725,3
38.719856,11
38.732986,7
38.746116,7
38.759247,5
38.772377,8
38.785507,6
38.798637,11
38.811768,3
38.824898,6
38.838028,8
38.851158,11
38.864289,3
38.877419,6
38.890549,7
38.90368,6
38.91681,10
38.92994,10
38.94307,6
38.956201,11
38.969331,6
38.982461,6
38.995592,2
39.008722,8
39.021852,3
39.034982,5
39.048113,3
39.061243,2
39.074373,7
39.087504,9
39.100634,7
39.113764,11
39.126894,4
39.140025,3
39.153155,4
39.166285,8
39.179416,10
39.192546,3
39.205676,6
39.218806,8
39.231937,7
39.245067,6
39.258197,9
39.271328,5
39.284458,8
39.297588,1
39.310718,8
39.323849,6
39.336979,5
39.350109,5
39.36324,7
39.37637,3
39.3895,4
39.40263,6
39.415761,6
39.428891,7
39.442021,5
39.455151,9
39.468282,7
39.481412,13
39.494542,14
39.507673,10
39.520803,4
39.533933,13
39.547063,14
39.560194,8
39.573324,13
39.586454,16
39.599585,7
39.612715,7
39.625845,6
39.638975,14
39.652106,10
39.665236,12
39.678366,13
39.691497,7
39.704627,12
39.717757,12
39.730887,16
39.744018,12
39.757148,6
39.770278,12
39.783409,7
39.796539,7
39.809669,8
39.822799,8
39.83593,11
39.84906,3
39.86219,9
39.875321,12
39.888451,9
39.901581,7
39.914711,10
39.927842,10
39.940972,6
39.954102,6
39.967233,11
39.980363,7
39.993493,13
40.006623,6
40.019754,5
40.032884,4
40.046014,11
40.059144,2
40.072275,4
40.085405,8
40.098535,3
40.111666,2
40.124796,3
40.137926,10
40.151056,8
40.164187,8
40.177317,5
40.190447,1
40.203578,8
40.216708,7
40.229838,3
40.242968,10
40.256099,7
40.269229,7
40.282359,12
40.29549,6
40.30862,6
40.32175,7
40.33488,14
40.348011,11
40.361141,9
40.374271,10
40.387402,12
40.400532,4
40.413662,15
40.426792,12
40.439923,10
40.453053,20
40.466183,9
40.479314,12
40.492444,15
40.505574,13
40.518704,8
40.531835,12
40.544965,11
40.558095,22
40.571226,15
40.584356,23
40.597486,10
40.610616,10
40.623747,15
40.636877,21
40.650007,13
40.663137,15
40.676268,19
40.689398,20
40.702528,19
40.715659,16
40.728789,30
40.741919,25
40.755049,23
40.76818,25
40.78131,32
40.79444,25
40.807571,28
40.820701,29
40.833831,30
40.846961,35
40.860092,28
40.873222,32
40.886352,27
40.899483,38
40.912613,33
40.925743,34
40.938873,46
40.952004,40
40.965134,40
40.978264,59
40.991395,53
41.004525,46
41.017655,50
41.030785,51
41.043916,46
41.057046,48
41.070176,60
41.083307,68
41.096437,65
41.109567,53
41.122697,64
41.135828,72
41.148958,71
41.162088,79
41.175219,75
41.188349,80
41.201479,81
41.214609,81
41.22774,102
41.24087,75
41.254,117
41.26713,98
41.280261,118
41.293391,96
41.306521,104
41.319652,113
41.332782,133
41.345912,121
41.359042,128
41.372173,132
41.385303,152
41.398433,135
41.411564,145
41.424694,173
41.437824,190
41.450954,153
41.464085,159
41.477215,190
41.490345,210
41.503476,214
41.516606,226
41.529736,222
41.542866,211
41.555997,251
41.569127,241
41.582257,222
41.595388,267
41.608518,294
41.621648,277
41.634778,300
41.647909,295
41.661039,290
41.674169,299
41.6873,368
41.70043,314
41.71356,311
41.72669,295
41.739821,320
41.752951,295
41.766081,277
41.779212,294
41.792342,295
41.805472,313
41.818602,259
41.831733,265
41.844863,262
41.857993,270
41.871123,228
41.884254,229
41.897384,239
41.910514,220
41.923645,193
41.936775,190
41.949905,206
41.963035,171
41.976166,175
41.989296,155
42.002426,131
42.015557,147
42.028687,136
42.041817,116
42.054947,107
42.068078,116
42.081208,79
42.094338,79
42.107469,88
42.120599,68
42.133729,76
42.146859,74
42.15999,63
42.17312,63
42.18625,61
42.199381,61
42.212511,48
42.225641,48
42.238771,32
42.251902,41
42.265032,46
42.278162,43
42.291293,60
42.304423,24
42.317553,48
42.330683,53
42.343814,57
42.356944,39
42.370074,43
42.383205,32
42.396335,39
42.409465,45
42.422595,36
42.435726,40
42.448856,44
42.461986,30
42.475117,34
42.488247,31
42.501377,29
42.514507,23
42.527638,25
42.540768,27
42.553898,22
42.567028,35
42.580159,15
42.593289,34
42.606419,16
42.61955,20
42.63268,24
42.64581,35
42.65894,12
42.672071,17
42.685201,21
42.698331,15
42.711462,19
42.724592,16
42.737722,28
42.750852,17
42.763983,24
42.777113,13
42.790243,15
42.803374,18
42.816504,15
42.829634,12
42.842764,7
42.855895,10
42.869025,7
42.882155,16
42.895286,19
42.908416,10
42.921546,12
42.934676,13
42.947807,10
42.960937,7
42.974067,7
42.987198,15
43.000328,9
43.013458,8
43.026588,15
43.039719,11
43.052849,8
43.065979,6
43.07911,11
43.09224,9
43.10537,7
43.1185,14
43.131631,6
43.144761,9
43.157891,10
43.171021,14
43.184152,6
43.197282,14
43.210412,6
43.223543,7
43.236673,9
43.249803,6
43.262933,5
43.276064,4
43.289194,10
43.302324,14
43.315455,4
43.328585,4
43.341715,6
43.354845,4
43.367976,5
43.381106,6
43.394236,4
43.407367,4
43.420497,7
43.433627,7
43.446757,6
43.459888,7
43.473018,4
43.486148,8
43.499279,7
43.512409,14
43.525539,7
43.538669,10
43.5518,4
43.56493,8
43.57806,3
43.591191,7
43.604321,6
43.617451,8
43.630581,8
43.643712,7
43.656842,4
43.669972,7
43.683103,5
43.696233,1
43.709363,6
43.722493,4
43.735624,1
43.748754,1
43.761884,5
43.775014,7
43.788145,1
43.801275,5
43.814405,10
43.827536,5
43.840666,1
43.853796,9
43.866926,4
43.880057,7
43.893187,11
43.906317,3
43.919448,3
43.932578,5
43.945708,8
43.958838,4
43.971969,2
43.985099,2
43.998229,4
44.01136,4
44.02449,6
44.03762,3
44.05075,13
44.063881,5
44.077011,8
44.090141,6
44.103272,6
44.116402,3
44.129532,4
44.142662,10
44.155793,8
44.168923,5
44.182053,4
44.195184,4
44.208314,5
44.221444,6
44.234574,8
44.247705,4
44.260835,4
44.273965,4
44.287096,6
44.300226,4
44.313356,2
44.326486,5
44.339617,3
44.352747,3
44.365877,4
44.379007,3
44.392138,5
44.405268,6
44.418398,3
44.431529,5
44.444659,6
44.457789,8
44.470919,3
44.48405,3
44.49718,0
44.51031,9
44.523441,6
44.536571,3
44.549701,8
44.562831,1
44.575962,5
44.589092,7
44.602222,5
44.615353,8
44.628483,11
44.641613,0
44.654743,4
44.667874,2
44.681004,4
44.694134,3
44.707265,4
44.720395,5
44.733525,5
44.746655,2
44.759786,5
44.772916,6
44.786046,3
44.799177,5
44.812307,4
44.825437,4
44.838567,5
44.851698,3
44.864828,5
44.877958,3
44.891089,10
44.904219,5
44.917349,9
44.930479,5
44.94361,7
44.95674,4
44.96987,1
44.983,9
44.996131,1
45.009261,5
45.022391,4
45.035522,8
45.048652,6
45.061782,6
45.074912,7
45.088043,9
45.101173,4
45.114303,2
45.127434,5
45.140564,5
45.153694,10
45.166824,7
45.179955,1
45.193085,4
45.206215,5
45.219346,4
45.232476,5
45.245606,5
45.258736,1
45.271867,2
45.284997,2
45.298127,5
45.311258,3
45.324388,6
45.337518,0
45.350648,5
45.363779,3
45.376909,7
45.390039,1
45.40317,6
45.4163,4
45.42943,9
45.44256,8
45.455691,5
45.468821,6
45.481951,1
45.495082,1
45.508212,6
45.521342,7
45.534472,3
45.547603,3
45.560733,5
45.573863,0
45.586993,4
45.600124,4
45.613254,5
45.626384,5
45.639515,2
45.652645,5
45.665775,3
45.678905,2
45.692036,9
45.705166,4
45.718296,3
45.731427,2
45.744557,1
45.757687,5
45.770817,2
45.783948,5
45.797078,9
45.810208,3
45.823339,9
45.836469,5
45.849599,5
45.862729,9
45.87586,5
45.88899,7
45.90212,0
45.915251,6
45.928381,3
45.941511,2
45.954641,5
45.967772,4
45.980902,6
45.994032,6
46.007163,5
46.020293,4
46.033423,3
46.046553,4
46.059684,2
46.072814,2
46.085944,4
46.099075,4
46.112205,2
46.125335,2
46.138465,8
46.151596,3
46.164726,5
46.177856,4
46.190986,4
46.204117,3
46.217247,3
46.230377,4
46.243508,4
46.256638,2
46.269768,9
46.282898,6
46.296029,6
46.309159,6
46.322289,7
46.33542,4
46.34855,2
46.36168,6
46.37481,4
46.387941,5
46.401071,7
46.414201,8
46.427332,3
46.440462,4
46.453592,2
46.466722,4
46.479853,3
46.492983,2
46.506113,5
46.519244,4
46.532374,7
46.545504,4
46.558634,5
46.571765,6
46.584895,5
46.598025,5
46.611156,5
46.624286,3
46.637416,4
46.650546,4
46.663677,9
46.676807,0
46.689937,5
46.703068,5
46.716198,1
46.729328,5
46.742458,5
46.755589,8
46.768719,6
46.781849,1
46.79498,1
46.80811,2
46.82124,6
46.83437,2
46.847501,3
46.860631,1
46.873761,3
46.886891,1
46.900022,3
46.913152,4
46.926282,2
46.939413,3
46.952543,3
46.965673,6
46.978803,4
46.991934,2
47.005064,3
47.018194,6
47.031325,2
47.044455,7
47.057585,8
47.070715,2
47.083846,6
47.096976,5
47.110106,3
47.123237,5
47.136367,6
47.149497,5
47.162627,6
47.175758,1
47.188888,3
47.202018,2
47.215149,3
47.228279,1
47.241409,3
47.254539,2
47.26767,2
47.2808,1
47.29393,2
47.307061,4
47.320191,2
47.333321,1
47.346451,2
47.359582,6
47.372712,5
47.385842,1
47.398973,5
47.412103,6
47.425233,1
47.438363,3
47.451494,7
47.464624,4
47.477754,4
47.490884,3
47.504015,4
47.517145,8
47.530275,5
47.543406,5
47.556536,4
47.569666,2
47.582796,7
47.595927,5
47.609057,1
47.622187,8
47.635318,2
47.648448,5
47.661578,3
47.674708,2
47.687839,4
47.700969,4
47.714099,4
47.72723,5
47.74036,2
47.75349,5
47.76662,5
47.779751,2
47.792881,5
47.806011,5
47.819142,6
47.832272,2
47.845402,10
47.858532,2
47.871663,0
47.884793,3
47.897923,3
47.911054,2
47.924184,3
47.937314,4
47.950444,2
47.963575,6
47.976705,9
47.989835,4
48.002966,3
48.016096,9
48.029226,4
48.042356,4
48.055487,6
48.068617,1
48.081747,2
48.094877,8
48.108008,2
48.121138,5
48.134268,2
48.147399,5
48.160529,3
48.173659,7
48.186789,7
48.19992,2
48.21305,3
48.22618,2
48.239311,3
48.252441,4
48.265571,2
48.278701,4
48.291832,5
48.304962,1
48.318092,6
48.331223,7
48.344353,3
48.357483,5
48.370613,3
48.383744,5
48.396874,2
48.410004,11
48.423135,3
48.436265,9
48.449395,2
48.462525,7
48.475656,0
48.488786,5
48.501916,9
48.515047,6
48.528177,7
48.541307,1
48.554437,5
48.567568,6
48.580698,6
48.593828,3
48.606959,2
48.620089,9
48.633219,4
48.646349,6
48.65948,7
48.67261,1
48.68574,2
48.69887,2
48.712001,1
48.725131,1
48.738261,6
48.751392,4
48.764522,2
48.777652,2
48.790782,0
48.803913,5
48.817043,4
48.830173,5
48.843304,4
48.856434,9
48.869564,5
48.882694,4
48.895825,3
48.908955,1
48.922085,2
48.935216,2
48.948346,7
48.961476,2
48.974606,2
48.987737,3
49.000867,8
49.013997,3
49.027128,2
49.040258,3
49.053388,2
49.066518,9
49.079649,3
49.092779,5
49.105909,4
49.11904,3
49.13217,5
49.1453,1
49.15843,3
49.171561,5
49.184691,6
49.197821,4
49.210952,3
49.224082,4
49.237212,6
49.250342,4
49.263473,1
49.276603,2
49.289733,4
49.302863,4
49.315994,2
49.329124,1
49.342254,2
49.355385,3
49.368515,7
49.381645,2
49.394775,3
49.407906,5
49.421036,2
49.434166,4
49.447297,5
49.460427,6
49.473557,8
49.486687,3
49.499818,6
49.512948,3
49.526078,5
49.539209,2
49.552339,3
49.565469,4
49.578599,2
49.59173,2
49.60486,4
49.61799,4
49.631121,5
49.644251,4
49.657381,2
49.670511,5
49.683642,4
49.696772,0
49.709902,6
49.723033,4
49.736163,4
49.749293,3
49.762423,2
49.775554,8
49.788684,2
49.801814,1
49.814945,3
49.828075,5
49.841205,0
49.854335,2
49.867466,4
49.880596,3
49.893726,4
49.906856,3
49.919987,2
49.933117,3
49.946247,2
49.959378,8
49.972508,4
49.985638,6
49.998768,1
50.011899,0
50.025029,4
50.038159,2
50.05129,12
50.06442,8
50.07755,2
50.09068,3
50.103811,1
50.116941,4
50.130071,3
50.143202,1
50.156332,5
50.169462,3
50.182592,1
50.195723,1
50.208853,4
50.221983,3
50.235114,4
50.248244,7
50.261374,5
50.274504,5
50.287635,3
50.300765,5
50.313895,9
50.327026,4
50.340156,2
50.353286,2
50.366416,1
50.379547,1
50.392677,1
50.405807,5
50.418938,4
50.432068,5
50.445198,1
50.458328,6
50.471459,1
50.484589,0
50.497719,1
50.510849,8
50.52398,3
50.53711,9
50.55024,7
50.563371,1
50.576501,1
50.589631,2
50.602761,3
50.615892,2
50.629022,1
50.642152,4
50.655283,2
50.668413,1
50.681543,6
50.694673,8
50.707804,4
50.720934,4
50.734064,3
50.747195,6
50.760325,4
50.773455,2
50.786585,3
50.799716,3
50.812846,5
50.825976,4
50.839107,5
50.852237,2
50.865367,0
50.878497,0
50.891628,4
50.904758,5
50.917888,3
50.931019,6
50.944149,7
50.957279,4
50.970409,3
50.98354,4
50.99667,3
51.0098,1
51.022931,5
51.036061,2
51.049191,1
51.062321,4
51.075452,1
51.088582,4
51.101712,0
51.114843,5
51.127973,3
51.141103,5
51.154233,4
51.167364,1
51.180494,3
51.193624,1
51.206754,1
51.219885,1
51.233015,2
51.246145,1
51.259276,4
51.272406,2
51.285536,5
51.298666,7
51.311797,1
51.324927,1
51.338057,0
51.351188,7
51.364318,7
51.377448,1
51.390578,9
51.403709,2
51.416839,4
51.429969,5
51.4431,2
51.45623,7
51.46936,3
51.48249,2
51.495621,0
51.508751,2
51.521881,3
51.535012,1
51.548142,3
51.561272,10
51.574402,6
51.587533,7
51.600663,2
51.613793,6
51.626924,1
51.640054,4
51.653184,2
51.666314,2
51.679445,3
51.692575,3
51.705705,3
51.718836,3
51.731966,2
51.745096,3
51.758226,7
51.771357,6
51.784487,1
51.797617,3
51.810747,4
51.823878,4
51.837008,4
51.850138,1
51.863269,4
51.876399,3
51.889529,2
51.902659,3
51.91579,4
51.92892,3
51.94205,1
51.955181,6
51.968311,3
51.981441,2
51.994571,1
52.007702,2
52.020832,0
52.033962,3
52.047093,4
52.060223,7
52.073353,2
52.086483,0
52.099614,4
52.112744,3
52.125874,7
52.139005,3
52.152135,3
52.165265,7
52.178395,2
52.191526,0
52.204656,3
52.217786,3
52.230917,3
52.244047,4
52.257177,2
52.270307,2
52.283438,5
52.296568,2
52.309698,5
52.322829,1
52.335959,9
52.349089,3
52.362219,7
52.37535,2
52.38848,8
52.40161,3
52.41474,10
52.427871,5
52.441001,4
52.454131,2
52.467262,4
52.480392,4
52.493522,6
52.506652,6
52.519783,6
52.532913,3
52.546043,7
52.559174,7
52.572304,2
52.585434,4
52.598564,6
52.611695,7
52.624825,2
52.637955,8
52.651086,2
52.664216,5
52.677346,6
52.690476,4
52.703607,1
52.716737,6
52.729867,0
52.742998,4
52.756128,2
52.769258,5
52.782388,0
52.795519,3
52.808649,2
52.821779,1
52.83491,6
52.84804,4
52.86117,1
52.8743,3
52.887431,2
52.900561,4
52.913691,6
52.926822,6
52.939952,5
52.953082,4
52.966212,4
52.979343,2
52.992473,4
53.005603,4
53.018733,2
53.031864,6
53.044994,5
53.058124,5
53.071255,7
53.084385,3
53.097515,8
53.110645,5
53.123776,4
53.136906,2
53.150036,3
53.163167,5
53.176297,4
53.189427,0
53.202557,3
53.215688,0
53.228818,6
53.241948,4
53.255079,0
53.268209,1
53.281339,2
53.294469,7
53.3076,1
53.32073,5
53.33386,2
53.346991,7
53.360121,3
53.373251,7
53.386381,2
53.399512,5
53.412642,4
53.425772,5
53.438903,5
53.452033,4
53.465163,3
53.478293,2
53.491424,6
53.504554,9
53.517684,2
53.530815,2
53.543945,2
53.557075,5
53.570205,2
53.583336,3
53.596466,2
53.609596,6
53.622726,1
53.635857,3
53.648987,4
53.662117,1
53.675248,2
53.688378,3
53.701508,5
53.714638,3
53.727769,4
53.740899,3
53.754029,4
53.76716,4
53.78029,7
53.79342,7
53.80655,1
53.819681,4
53.832811,8
53.845941,5
53.859072,1
53.872202,6
53.885332,3
53.898462,2
53.911593,2
53.924723,4
53.937853,5
53.950984,11
53.964114,5
53.977244,1
53.990374,3
54.003505,5
54.016635,6
54.029765,5
54.042896,2
54.056026,5
54.069156,4
54.082286,2
54.095417,0
54.108547,4
54.121677,1
54.134808,3
54.147938,0
54.161068,2
54.174198,3
54.187329,1
54.200459,2
54.213589,5
54.226719,7
54.23985,5
54.25298,1
54.26611,1
54.279241,5
54.292371,2
54.305501,6
54.318631,3
54.331762,2
54.344892,1
54.358022,7
54.371153,4
54.384283,8
54.397413,1
54.410543,5
54.423674,3
54.436804,1
54.449934,6
54.463065,4
54.476195,5
54.489325,4
54.502455,2
54.515586,4
54.528716,3
54.541846,1
54.554977,2
54.568107,3
54.581237,0
54.594367,3
54.607498,2
54.620628,4
54.633758,2
54.646889,1
54.660019,4
54.673149,2
54.686279,1
54.69941,3
54.71254,1
54.72567,3
54.738801,1
54.751931,1
54.765061,2
54.778191,3
54.791322,5
54.804452,5
54.817582,5
54.830713,3
54.843843,1
54.856973,2
54.870103,8
54.883234,3
54.896364,9
54.909494,4
54.922624,6
54.935755,2
54.948885,2
54.962015,4
54.975146,4
54.988276,1
55.001406,3
55.014536,2
55.027667,2
55.040797,2
55.053927,0
55.067058,1
55.080188,2
55.093318,7
55.106448,6
55.119579,3
55.132709,4
55.145839,2
55.15897,6
55.1721,3
55.18523,6
55.19836,4
55.211491,4
55.224621,4
55.237751,10
55.250882,1
55.264012,7
55.277142,3
55.290272,5
55.303403,8
55.316533,1
55.329663,2
55.342794,3
55.355924,2
55.369054,3
55.382184,5
55.395315,1
55.408445,6
55.421575,6
55.434706,3
55.447836,0
55.460966,6
55.474096,3
55.487227,4
55.500357,0
55.513487,0
55.526617,1
55.539748,3
55.552878,0
55.566008,3
55.579139,0
55.592269,1
55.605399,8
55.618529,2
55.63166,0
55.64479,0
55.65792,2
55.671051,7
55.684181,3
55.697311,1
55.710441,2
55.723572,0
55.736702,3
55.749832,7
55.762963,2
55.776093,5
55.789223,3
55.802353,7
55.815484,1
55.828614,1
55.841744,5
55.854875,2
55.868005,4
55.881135,2
55.894265,5
55.907396,2
55.920526,0
55.933656,7
55.946787,1
55.959917,3
55.973047,2
55.986177,3
55.999308,1
56.012438,3
56.025568,1
56.038699,5
56.051829,2
56.064959,4
56.078089,4
56.09122,2
56.10435,3
56.11748,3
56.13061,2
56.143741,3
56.156871,0
56.170001,5
56.183132,2
56.196262,4
56.209392,3
56.222522,2
56.235653,5
56.248783,2
56.261913,6
56.275044,3
56.288174,3
56.301304,3
56.314434,4
56.327565,6
56.340695,0
56.353825,3
56.366956,1
56.380086,2
56.393216,4
56.406346,3
56.419477,0
56.432607,8
56.445737,2
56.458868,2
56.471998,4
56.485128,4
56.498258,4
56.511389,9
56.524519,2
56.537649,4
56.55078,1
56.56391,2
56.57704,4
56.59017,4
56.603301,7
56.616431,3
56.629561,3
56.642692,5
56.655822,7
56.668952,4
56.682082,1
56.695213,1
56.708343,5
56.721473,2
56.734603,4
56.747734,0
56.760864,6
56.773994,3
56.787125,4
56.800255,4
56.813385,1
56.826515,3
56.839646,3
56.852776,2
56.865906,1
56.879037,3
56.892167,9
56.905297,7
56.918427,7
56.931558,0
56.944688,1
56.957818,2
56.970949,2
56.984079,2
56.997209,4
57.010339,0
57.02347,2
57.0366,3
57.04973,5
57.062861,4
57.075991,3
57.089121,3
57.102251,3
57.115382,4
57.128512,2
57.141642,5
57.154773,3
57.167903,2
57.181033,2
57.194163,4
57.207294,3
57.220424,3
57.233554,8
57.246685,3
57.259815,7
57.272945,3
57.286075,2
57.299206,3
57.312336,5
57.325466,10
57.338596,5
57.351727,4
57.364857,8
57.377987,4
57.391118,8
57.404248,1
57.417378,2
57.430508,6
57.443639,5
57.456769,7
57.469899,8
57.48303,1
57.49616,4
57.50929,5
57.52242,2
57.535551,4
57.548681,1
57.561811,4
57.574942,1
57.588072,3
57.601202,1
57.614332,2
57.627463,5
57.640593,1
57.653723,3
57.666854,6
57.679984,5
57.693114,5
57.706244,2
57.719375,3
57.732505,2
57.745635,2
57.758766,2
57.771896,2
57.785026,0
57.798156,2
57.811287,5
57.824417,5
57.837547,4
57.850678,4
57.863808,5
57.876938,2
57.890068,4
57.903199,1
57.916329,4
57.929459,6
57.942589,3
57.95572,3
57.96885,0
57.98198,0
57.995111,3
58.008241,8
58.021371,3
58.034501,1
58.047632,7
58.060762,1
58.073892,2
58.087023,4
58.100153,0
58.113283,5
58.126413,5
58.139544,6
58.152674,7
58.165804,1
58.178935,5
58.192065,2
58.205195,1
58.218325,4
58.231456,2
58.244586,3
58.257716,3
58.270847,4
58.283977,3
58.297107,2
58.310237,0
58.323368,4
58.336498,1
58.349628,10
58.362759,3
58.375889,4
58.389019,5
58.402149,4
58.41528,2
58.42841,3
58.44154,12
58.454671,5
58.467801,9
58.480931,9
58.494061,8
58.507192,8
58.520322,3
58.533452,3
58.546582,4
58.559713,4
58.572843,8
58.585973,8
58.599104,8
58.612234,11
58.625364,11
58.638494,11
58.651625,7
58.664755,10
58.677885,9
58.691016,4
58.704146,7
58.717276,10
58.730406,7
58.743537,5
58.756667,10
58.769797,15
58.782928,9
58.796058,7
58.809188,9
58.822318,10
58.835449,6
58.848579,13
58.861709,9
58.87484,14
58.88797,10
58.9011,10
58.91423,8
58.927361,6
58.940491,10
58.953621,13
58.966752,13
58.979882,13
58.993012,7
59.006142,9
59.019273,9
59.032403,19
59.045533,14
59.058664,17
59.071794,11
59.084924,15
59.098054,13
59.111185,15
59.124315,17
59.137445,14
59.150576,24
59.163706,9
59.176836,16
59.189966,19
59.203097,23
59.216227,19
59.229357,23
59.242487,9
59.255618,29
59.268748,11
59.281878,26
59.295009,18
59.308139,19
59.321269,20
59.334399,20
59.34753,18
59.36066,30
59.37379,27
59.386921,23
59.400051,15
59.413181,20
59.426311,31
59.439442,21
59.452572,27
59.465702,33
59.478833,37
59.491963,32
59.505093,34
59.518223,39
59.531354,32
59.544484,26
59.557614,36
59.570745,28
59.583875,37
59.597005,30
59.610135,38
59.623266,43
59.636396,41
59.649526,45
59.662657,49
59.675787,33
59.688917,39
59.702047,34
59.715178,53
59.728308,48
59.741438,52
59.754569,50
59.767699,49
59.780829,52
59.793959,61
59.80709,68
59.82022,56
59.83335,64
59.84648,52
59.859611,57
59.872741,65
59.885871,67
59.899002,71
59.912132,68
59.925262,64
59.938392,75
59.951523,76
59.964653,76
59.977783,76
59.990914,89
60.004044,75
60.017174,95
60.030304,97
60.043435,91
60.056565,84
60.069695,106
60.082826,97
60.095956,84
60.109086,92
60.122216,120
60.135347,100
60.148477,107
60.161607,116
60.174738,103
60.187868,107
60.200998,120
60.214128,111
60.227259,120
60.240389,133
60.253519,121
60.26665,125
60.27978,156
60.29291,152
60.30604,128
60.319171,146
60.332301,129
60.345431,127
60.358562,145
60.371692,155
60.384822,158
60.397952,182
60.411083,183
60.424213,160
60.437343,167
60.450473,145
60.463604,150
60.476734,139
60.489864,167
60.502995,162
60.516125,153
60.529255,139
60.542385,146
60.555516,136
60.568646,123
60.581776,147
60.594907,125
60.608037,109
60.621167,151
60.634297,138
60.647428,133
60.660558,93
60.673688,127
60.686819,120
60.699949,109
60.713079,111
60.726209,108
60.73934,90
60.75247,101
60.7656,75
60.778731,93
60.791861,77
60.804991,88
60.818121,75
60.831252,73
60.844382,80
60.857512,50
60.870643,54
60.883773,68
60.896903,43
60.910033,55
60.923164,63
60.936294,55
60.949424,43
60.962555,47
60.975685,33
60.988815,54
61.001945,38
61.015076,41
61.028206,34
61.041336,27
61.054466,35
61.067597,37
61.080727,28
61.093857,33
61.106988,22
61.120118,28
61.133248,32
61.146378,22
61.159509,29
61.172639,28
61.185769,29
61.1989,27
61.21203,26
61.22516,23
61.23829,24
61.251421,20
61.264551,28
61.277681,29
61.290812,19
61.303942,29
61.317072,26
61.330202,30
61.343333,17
61.356463,23
61.369593,20
61.382724,22
61.395854,12
61.408984,15
61.422114,16
61.435245,19
61.448375,21
61.461505,22
61.474636,14
61.487766,32
61.500896,16
61.514026,18
61.527157,16
61.540287,18
61.553417,15
61.566548,16
61.579678,19
61.592808,17
61.605938,13
61.619069,17
61.632199,19
61.645329,18
61.658459,16
61.67159,14
61.68472,17
61.69785,15
61.710981,19
61.724111,9
61.737241,9
61.750371,20
61.763502,16
61.776632,12
61.789762,13
61.802893,14
61.816023,11
61.829153,13
61.842283,15
61.855414,20
61.868544,18
61.881674,18
61.894805,9
61.907935,14
61.921065,10
61.934195,16
61.947326,19
61.960456,8
61.973586,8
61.986717,13
61.999847,7
62.012977,3
62.026107,6
62.039238,15
62.052368,9
62.065498,6
62.078629,12
62.091759,10
62.104889,8
62.118019,9
62.13115,5
62.14428,5
62.15741,11
62.170541,5
62.183671,8
62.196801,7
62.209931,4
62.223062,9
62.236192,4
62.249322,11
62.262452,6
62.275583,8
62.288713,7
62.301843,3
62.314974,6
62.328104,8
62.341234,2
62.354364,8
62.367495,9
62.380625,6
62.393755,7
62.406886,4
62.420016,1
62.433146,4
62.446276,9
62.459407,4
62.472537,7
62.485667,5
62.498798,7
62.511928,6
62.525058,8
62.538188,5
62.551319,3
62.564449,3
62.577579,4
62.59071,6
62.60384,5
62.61697,11
62.6301,3
62.643231,2
62.656361,6
62.669491,7
62.682622,2
62.695752,4
62.708882,3
62.722012,7
62.735143,4
62.748273,5
62.761403,2
62.774534,4
62.787664,2
62.800794,8
62.813924,7
62.827055,10
62.840185,6
62.853315,2
62.866445,0
62.879576,6
62.892706,8
62.905836,2
62.918967,6
62.932097,0
62.945227,2
62.958357,9
62.971488,6
62.984618,0
62.997748,4
63.010879,2
63.024009,2
63.037139,2
63.050269,7
63.0634,3
63.07653,1
63.08966,6
63.102791,7
63.115921,5
63.129051,3
63.142181,2
63.155312,6
63.168442,1
63.181572,1
63.194703,2
63.207833,6
63.220963,4
63.234093,4
63.247224,4
63.260354,5
63.273484,0
63.286615,3
63.299745,3
63.312875,7
63.326005,4
63.339136,4
63.352266,3
63.365396,3
63.378527,3
63.391657,8
63.404787,6
63.417917,4
63.431048,0
63.444178,7
63.457308,0
63.470439,0
63.483569,3
63.496699,3
63.509829,7
63.52296,4
63.53609,6
63.54922,2
63.56235,1
63.575481,5
63.588611,4
63.601741,6
63.614872,5
63.628002,4
63.641132,8
63.654262,2
63.667393,3
63.680523,2
63.693653,4
63.706784,3
63.719914,11
63.733044,1
63.746174,1
63.759305,2
63.772435,3
63.785565,4
63.798696,3
63.811826,4
63.824956,4
63.838086,4
63.851217,3
63.864347,5
63.877477,5
63.890608,3
63.903738,2
63.916868,3
63.929998,1
63.943129,8
63.956259,6
63.969389,4
63.98252,5
63.99565,5
64.00878,4
64.02191,1
64.035041,0
64.048171,4
64.061301,1
64.074432,3
64.087562,7
64.100692,2
64.113822,6
64.126953,4
64.140083,1
64.153213,1
64.166343,3
64.179474,5
64.192604,4
64.205734,5
64.218865,4
64.231995,6
64.245125,4
64.258255,5
64.271386,3
64.284516,1
64.297646,7
64.310777,3
64.323907,2
64.337037,1
64.350167,3
64.363298,3
64.376428,5
64.389558,0
64.402689,8
64.415819,2
64.428949,4
64.442079,0
64.45521,6
64.46834,3
64.48147,4
64.494601,1
64.507731,5
64.520861,0
64.533991,5
64.547122,1
64.560252,5
64.573382,1
64.586513,3
64.599643,0
64.612773,3
64.625903,5
64.639034,1
64.652164,4
64.665294,4
64.678425,3
64.691555,2
64.704685,6
64.717815,7
64.730946,5
64.744076,2
64.757206,5
64.770336,2
64.783467,4
64.796597,4
64.809727,8
64.822858,2
64.835988,2
64.849118,2
64.862248,3
64.875379,4
64.888509,4
64.901639,3
64.91477,5
64.9279,6
64.94103,3
64.95416,3
64.967291,5
64.980421,4
64.993551,3
65.006682,1
65.019812,3
65.032942,4
65.046072,4
65.059203,2
65.072333,2
65.085463,0
65.098594,0
65.111724,4
65.124854,2
65.137984,2
65.151115,3
65.164245,2
65.177375,9
65.190506,2
65.203636,2
65.216766,4
65.229896,6
65.243027,5
65.256157,2
65.269287,4
65.282418,3
65.295548,3
65.308678,0
65.321808,2
65.334939,3
65.348069,2
65.361199,2
65.374329,3
65.38746,2
65.40059,5
65.41372,4
65.426851,3
65.439981,4
65.453111,3
65.466241,0
65.479372,5
65.492502,2
65.505632,2
65.518763,0
65.531893,2
65.545023,6
65.558153,0
65.571284,5
65.584414,4
65.597544,0
65.610675,5
65.623805,2
65.636935,2
65.650065,2
65.663196,5
65.676326,5
65.689456,1
65.702587,4
65.715717,9
65.728847,3
65.741977,4
65.755108,2
65.768238,1
65.781368,2
65.794499,1
65.807629,2
65.820759,1
65.833889,8
65.84702,2
65.86015,9
65.87328,3
65.886411,1
65.899541,1
65.912671,1
65.925801,2
65.938932,6
65.952062,7
65.965192,5
65.978322,3
65.991453,6
66.004583,3
66.017713,1
66.030844,3
66.043974,3
66.057104,4
66.070234,3
66.083365,1
66.096495,4
66.109625,3
66.122756,2
66.135886,5
66.149016,2
66.162146,0
66.175277,3
66.188407,2
66.201537,0
66.214668,0
66.227798,6
66.240928,2
66.254058,3
66.267189,7
66.280319,2
66.293449,4
66.30658,3
66.31971,4
66.33284,3
66.34597,3
66.359101,10
66.372231,3
66.385361,1
66.398492,4
66.411622,6
66.424752,1
66.437882,3
66.451013,0
66.464143,0
66.477273,3
66.490404,0
66.503534,1
66.516664,6
66.529794,3
66.542925,3
66.556055,2
66.569185,1
66.582315,4
66.595446,0
66.608576,1
66.621706,1
66.634837,1
66.647967,2
66.661097,5
66.674227,4
66.687358,4
66.700488,0
66.713618,4
66.726749,2
66.739879,3
66.753009,5
66.766139,0
66.77927,3
66.7924,1
66.80553,1
66.818661,4
66.831791,2
66.844921,4
66.858051,4
66.871182,3
66.884312,5
66.897442,0
66.910573,1
66.923703,1
66.936833,2
66.949963,2
66.963094,1
66.976224,3
66.989354,2
67.002485,9
67.015615,3
67.028745,3
67.041875,5
67.055006,0
67.068136,1
67.081266,2
67.094397,9
67.107527,3
67.120657,0
67.133787,2
67.146918,3
67.160048,2
67.173178,0
67.186308,4
67.199439,2
67.212569,1
67.225699,0
67.23883,2
67.25196,3
67.26509,2
67.27822,2
67.291351,2
67.304481,5
67.317611,1
67.330742,2
67.343872,4
67.357002,6
67.370132,5
67.383263,2
67.396393,3
67.409523,2
67.422654,2
67.435784,3
67.448914,3
67.462044,4
67.475175,2
67.488305,0
67.501435,3
67.514566,3
67.527696,3
67.540826,3
67.553956,10
67.567087,3
67.580217,1
67.593347,8
67.606478,3
67.619608,3
67.632738,5
67.645868,4
67.658999,6
67.672129,3
67.685259,0
67.69839,3
67.71152,3
67.72465,1
67.73778,1
67.750911,4
67.764041,4
67.777171,3
67.790302,5
67.803432,2
67.816562,3
67.829692,2
67.842823,2
67.855953,4
67.869083,2
67.882213,1
67.895344,5
67.908474,4
67.921604,7
67.934735,3
67.947865,3
67.960995,5
67.974125,3
67.987256,4
68.000386,1
68.013516,1
68.026647,3
68.039777,0
68.052907,6
68.066037,2
68.079168,3
68.092298,0
68.105428,3
68.118559,3
68.131689,0
68.144819,0
68.157949,3
68.17108,2
68.18421,2
68.19734,3
68.210471,2
68.223601,2
68.236731,5
68.249861,4
68.262992,7
68.276122,3
68.289252,2
68.302383,9
68.315513,3
68.328643,8
68.341773,1
68.354904,4
68.368034,11
68.381164,2
68.394295,2
68.407425,5
68.420555,3
68.433685,3
68.446816,3
68.459946,2
68.473076,5
68.486206,0
68.499337,1
68.512467,3
68.525597,1
68.538728,3
68.551858,0
68.564988,1
68.578118,3
68.591249,3
68.604379,5
68.617509,2
68.63064,2
68.64377,1
68.6569,4
68.67003,2
68.683161,0
68.696291,2
68.709421,3
68.722552,3
68.735682,7
68.748812,6
68.761942,2
68.775073,2
68.788203,4
68.801333,6
68.814464,2
68.827594,0
68.840724,2
68.853854,2
68.866985,2
68.880115,4
68.893245,4
68.906376,1
68.919506,1
68.932636,2
68.945766,1
68.958897,2
68.972027,1
68.985157,3
68.998288,3
69.011418,4
69.024548,1
69.037678,1
69.050809,4
69.063939,3
69.077069,2
69.090199,2
69.10333,1
69.11646,4
69.12959,4
69.142721,3
69.155851,3
69.168981,2
69.182111,5
69.195242,0
69.208372,5
69.221502,2
69.234633,2
69.247763,2
69.260893,3
69.274023,3
69.287154,0
69.300284,2
69.313414,1
69.326545,3
69.339675,2
69.352805,6
69.365935,8
69.379066,4
69.392196,4
69.405326,5
69.418457,3
69.431587,3
69.444717,4
69.457847,3
69.470978,4
69.484108,4
69.497238,4
69.510369,5
69.523499,4
69.536629,3
69.549759,3
69.56289,2
69.57602,2
69.58915,6
69.602281,5
69.615411,9
69.628541,4
69.641671,7
69.654802,1
69.667932,7
69.681062,5
69.694192,7
69.707323,4
69.720453,11
69.733583,0
69.746714,1
69.759844,11
69.772974,2
69.786104,4
69.799235,6
69.812365,3
69.825495,7
69.838626,4
69.851756,7
69.864886,3
69.878016,5
69.891147,8
69.904277,4
69.917407,10
69.930538,3
69.943668,3
69.956798,6
69.969928,6
69.983059,2
69.996189,2
70.009319,5
70.02245,4
70.03558,9
70.04871,11
70.06184,7
70.074971,6
70.088101,3
70.101231,4
70.114362,2
70.127492,3
70.140622,7
70.153752,12
70.166883,5
70.180013,6
70.193143,15
70.206274,5
70.219404,5
70.232534,8
70.245664,10
70.258795,5
70.271925,6
70.285055,11
70.298185,6
70.311316,5
70.324446,7
70.337576,6
70.350707,11
70.363837,5
70.376967,6
70.390097,7
70.403228,12
70.416358,6
70.429488,8
70.442619,10
70.455749,15
70.468879,12
70.482009,6
70.49514,8
70.50827,6
70.5214,7
70.534531,13
70.547661,4
70.560791,9
70.573921,16
70.587052,6
70.600182,6
70.613312,16
70.626443,6
70.639573,16
70.652703,15
70.665833,9
70.678964,4
70.692094,7
70.705224,15
70.718355,10
70.731485,7
70.744615,19
70.757745,15
70.770876,18
70.784006,14
70.797136,10
70.810267,13
70.823397,17
70.836527,12
70.849657,14
70.862788,14
70.875918,15
70.889048,26
70.902178,17
70.915309,17
70.928439,20
70.941569,18
70.9547,17
70.96783,22
70.98096,15
70.99409,22
71.007221,16
71.020351,16
71.033481,19
71.046612,20
71.059742,18
71.072872,26
71.086002,20
71.099133,12
71.112263,22
71.125393,22
71.138524,16
71.151654,21
71.164784,29
71.177914,26
71.191045,20
71.204175,26
71.217305,28
71.230436,24
71.243566,27
71.256696,28
71.269826,34
71.282957,33
71.296087,24
71.309217,40
71.322348,31
71.335478,24
71.348608,30
71.361738,30
71.374869,44
71.387999,32
71.401129,32
71.41426,40
71.42739,40
71.44052,30
71.45365,38
71.466781,40
71.479911,41
71.493041,37
71.506172,45
71.519302,31
71.532432,46
71.545562,34
71.558693,50
71.571823,42
71.584953,54
71.598083,60
71.611214,58
71.624344,59
71.637474,68
71.650605,45
71.663735,50
71.676865,62
71.689995,42
71.703126,71
71.716256,85
71.729386,66
71.742517,60
71.755647,65
71.768777,67
71.781907,65
71.795038,61
71.808168,51
71.821298,86
71.834429,66
71.847559,86
71.860689,63
71.873819,85
71.88695,81
71.90008,92
71.91321,77
71.926341,93
71.939471,79
71.952601,100
71.965731,93
71.978862,89
71.991992,84
72.005122,86
72.018253,102
72.031383,127
72.044513,107
72.057643,95
72.070774,106
72.083904,117
72.097034,120
72.110165,107
72.123295,120
72.136425,119
72.149555,114
72.162686,105
72.175816,111
72.188946,124
72.202076,112
72.215207,119
72.228337,136
72.241467,133
72.254598,127
72.267728,124
72.280858,101
72.293988,118
72.307119,136
72.320249,127
72.333379,115
72.34651,129
72.35964,134
72.37277,120
72.3859,131
72.399031,127
72.412161,114
72.425291,121
72.438422,135
72.451552,129
72.464682,110
72.477812,101
72.490943,121
72.504073,113
72.517203,98
72.530334,87
72.543464,101
72.556594,121
72.569724,98
72.582855,104
72.595985,101
72.609115,90
72.622246,97
72.635376,80
72.648506,78
72.661636,102
72.674767,96
72.687897,78
72.701027,77
72.714158,67
72.727288,73
72.740418,56
72.753548,80
72.766679,60
72.779809,61
72.792939,64
72.806069,69
72.8192,44
72.83233,39
72.84546,64
72.858591,50
72.871721,54
72.884851,58
72.897981,42
72.911112,60
72.924242,45
72.937372,41
72.950503,32
72.963633,36
72.976763,35
72.989893,40
73.003024,32
73.016154,41
73.029284,32
73.042415,20
73.055545,32
73.068675,20
73.081805,29
73.094936,24
73.108066,39
73.121196,33
73.134327,22
73.147457,19
73.160587,28
73.173717,23
73.186848,20
73.199978,16
73.213108,17
73.226239,16
73.239369,22
73.252499,15
73.265629,43
73.27876,18
73.29189,29
73.30502,27
73.318151,28
73.331281,20
73.344411,22
73.357541,14
73.370672,12
73.383802,14
73.396932,20
73.410062,18
73.423193,21
73.436323,20
73.449453,22
73.462584,14
73.475714,9
73.488844,13
73.501974,17
73.515105,16
73.528235,21
73.541365,16
73.554496,23
73.567626,12
73.580756,20
73.593886,20
73.607017,14
73.620147,18
73.633277,17
73.646408,13
73.659538,15
73.672668,10
73.685798,20
73.698929,17
73.712059,16
73.725189,13
73.73832,15
73.75145,5
73.76458,15
73.77771,12
73.790841,13
73.803971,16
73.817101,11
73.830232,14
73.843362,13
73.856492,8
73.869622,14
73.882753,14
73.895883,19
73.909013,8
73.922144,20
73.935274,12
73.948404,14
73.961534,9
73.974665,15
73.987795,20
74.000925,12
74.014055,15
74.027186,21
74.040316,7
74.053446,15
74.066577,12
74.079707,12
74.092837,9
74.105967,17
74.119098,3
74.132228,13
74.145358,13
74.158489,11
74.171619,8
74.184749,6
74.197879,11
74.21101,10
74.22414,14
74.23727,7
74.250401,9
74.263531,16
74.276661,10
74.289791,11
74.302922,17
74.316052,10
74.329182,4
74.342313,4
74.355443,12
74.368573,10
74.381703,10
74.394834,3
74.407964,10
74.421094,9
74.434225,11
74.447355,14
74.460485,9
74.473615,9
74.486746,8
74.499876,13
74.513006,22
74.526137,3
74.539267,9
74.552397,10
74.565527,14
74.578658,10
74.591788,7
74.604918,7
74.618048,12
74.631179,10
74.644309,9
74.657439,10
74.67057,8
74.6837,9
74.69683,6
74.70996,6
74.723091,12
74.736221,9
74.749351,10
74.762482,16
74.775612,13
74.788742,10
74.801872,6
74.815003,15
74.828133,16
74.841263,12
74.854394,21
74.867524,11
74.880654,5
74.893784,10
74.906915,10
74.920045,9
74.933175,18
74.946306,19
74.959436,20
74.972566,8
74.985696,11
74.998827,14
75.011957,10
75.025087,12
75.038218,9
75.051348,16
75.064478,19
75.077608,12
75.090739,14
75.103869,13
75.116999,14
75.13013,14
75.14326,22
75.15639,14
75.16952,12
75.182651,12
75.195781,14
75.208911,8
75.222041,17
75.235172,17
75.248302,22
75.261432,25
75.274563,17
75.287693,12
75.300823,17
75.313953,14
75.327084,22
75.340214,15
75.353344,19
75.366475,24
75.379605,25
75.392735,26
75.405865,21
75.418996,20
75.432126,28
75.445256,18
75.458387,25
75.471517,22
75.484647,25
75.497777,26
75.510908,26
75.524038,23
75.537168,32
75.550299,26
75.563429,30
75.576559,33
75.589689,29
75.60282,32
75.61595,29
75.62908,25
75.642211,29
75.655341,31
75.668471,28
75.681601,32
75.694732,30
75.707862,29
75.720992,35
75.734123,38
75.747253,34
75.760383,28
75.773513,40
75.786644,35
75.799774,32
75.812904,27
75.826035,29
75.839165,41
75.852295,33
75.865425,44
75.878556,33
75.891686,35
75.904816,30
75.917946,51
75.931077,60
75.944207,36
75.957337,41
75.970468,29
75.983598,43
75.996728,35
76.009858,52
76.022989,39
76.036119,42
76.049249,56
76.06238,45
76.07551,54
76.08864,51
76.10177,32
76.114901,55
76.128031,47
76.141161,30
76.154292,46
76.167422,56
76.180552,45
76.193682,43
76.206813,49
76.219943,44
76.233073,40
76.246204,36
76.259334,41
76.272464,40
76.285594,37
76.298725,36
76.311855,52
76.324985,35
76.338116,29
76.351246,33
76.364376,41
76.377506,35
76.390637,35
76.403767,45
76.416897,32
76.430028,28
76.443158,36
76.456288,22
76.469418,29
76.482549,20
76.495679,28
76.508809,22
76.521939,17
76.53507,28
76.5482,20
76.56133,20
76.574461,28
76.587591,23
76.600721,21
76.613851,20
76.626982,19
76.640112,17
76.653242,17
76.666373,12
76.679503,24
76.692633,22
76.705763,14
76.718894,18
76.732024,12
76.745154,22
76.758285,14
76.771415,14
76.784545,19
76.797675,15
76.810806,7
76.823936,11
76.837066,17
76.850197,10
76.863327,7
76.876457,12
76.889587,12
76.902718,9
76.915848,16
76.928978,10
76.942109,3
76.955239,14
76.968369,11
76.981499,10
76.99463,6
77.00776,6
77.02089,8
77.034021,7
77.047151,12
77.060281,12
77.073411,8
77.086542,3
77.099672,7
77.112802,6
77.125932,10
77.139063,8
77.152193,9
77.165323,7
77.178454,14
77.191584,5
77.204714,9
77.217844,8
77.230975,3
77.244105,6
77.257235,7
77.270366,2
77.283496,9
77.296626,9
77.309756,4
77.322887,3
77.336017,6
77.349147,6
77.362278,3
77.375408,9
77.388538,5
77.401668,4
77.414799,7
77.427929,10
77.441059,3
77.45419,1
77.46732,8
77.48045,0
77.49358,6
77.506711,4
77.519841,8
77.532971,3
77.546102,8
77.559232,9
77.572362,12
77.585492,10
77.598623,9
77.611753,5
77.624883,3
77.638014,11
77.651144,10
77.664274,3
77.677404,5
77.690535,5
77.703665,8
77.716795,10
77.729925,4
77.743056,10
77.756186,2
77.769316,7
77.782447,10
77.795577,6
77.808707,5
77.821837,3
77.834968,2
77.848098,5
77.861228,2
77.874359,2
77.887489,3
77.900619,5
77.913749,3
77.92688,7
77.94001,3
77.95314,6
77.966271,4
77.979401,6
77.992531,2
78.005661,1
78.018792,5
78.031922,5
78.045052,4
78.058183,4
78.071313,7
78.084443,3
78.097573,3
78.110704,4
78.123834,1
78.136964,1
78.150095,5
78.163225,1
78.176355,2
78.189485,10
78.202616,5
78.215746,1
78.228876,4
78.242007,1
78.255137,0
78.268267,1
78.281397,5
78.294528,4
78.307658,6
78.320788,1
78.333918,5
78.347049,3
78.360179,2
78.373309,2
78.38644,2
78.39957,4
78.4127,4
78.42583,2
78.438961,3
78.452091,2
78.465221,7
78.478352,3
78.491482,1
78.504612,1
78.517742,3
78.530873,6
78.544003,4
78.557133,3
78.570264,0
78.583394,2
78.596524,2
78.609654,1
78.622785,2
78.635915,3
78.649045,5
78.662176,6
78.675306,1
78.688436,7
78.701566,2
78.714697,4
78.727827,5
78.740957,1
78.754088,2
78.767218,0
78.780348,2
78.793478,1
78.806609,1
78.819739,0
78.832869,5
78.846,1
78.85913,5
78.87226,6
78.88539,3
78.898521,2
78.911651,0
78.924781,2
78.937911,2
78.951042,6
78.964172,4
78.977302,4
78.990433,3
79.003563,2
79.016693,0
79.029823,4
79.042954,1
79.056084,2
79.069214,0
79.082345,6
79.095475,5
79.108605,4
79.121735,1
79.134866,9
79.147996,3
79.161126,2
79.174257,2
79.187387,2
79.200517,3
79.213647,3
79.226778,0
79.239908,1
79.253038,2
79.266169,5
79.279299,1
79.292429,8
79.305559,6
79.31869,0
79.33182,0
79.34495,1
79.358081,1
79.371211,1
79.384341,4
79.397471,0
79.410602,4
79.423732,3
79.436862,2
79.449993,5
79.463123,3
79.476253,2
79.489383,5
79.502514,7
79.515644,0
79.528774,4
79.541904,0
79.555035,3
79.568165,1
79.581295,1
79.594426,2
79.607556,3
79.620686,2
79.633816,1
79.646947,4
79.660077,1
79.673207,1
79.686338,0
79.699468,3
79.712598,1
79.725728,5
79.738859,1
79.751989,2
79.765119,5
79.77825,1
79.79138,0
79.80451,1
79.81764,1
79.830771,0
79.843901,3
79.857031,2
79.870162,4
79.883292,0
79.896422,4
79.909552,3
79.922683,5
79.935813,2
79.948943,4
79.962074,2
79.975204,10
79.988334,5
80.001464,1
80.014595,1
80.027725,1
80.040855,4
80.053986,5
80.067116,5
80.080246,2
80.093376,4
80.106507,3
80.119637,1
80.132767,1
80.145898,2
80.159028,3
80.172158,4
80.185288,4
80.198419,3
80.211549,0
80.224679,2
80.237809,3
80.25094,2
80.26407,1
80.2772,1
80.290331,0
80.303461,1
80.316591,1
80.329721,0
80.342852,0
80.355982,1
80.369112,4
80.382243,5
80.395373,0
80.408503,2
80.421633,3
80.434764,2
80.447894,3
80.461024,2
80.474155,2
80.487285,3
80.500415,1
80.513545,0
80.526676,2
80.539806,2
80.552936,6
80.566067,1
80.579197,5
80.592327,0
80.605457,0
80.618588,2
80.631718,2
80.644848,2
80.657979,1
80.671109,1
80.684239,2
80.697369,3
80.7105,3
80.72363,4
80.73676,6
80.749891,2
80.763021,3
80.776151,1
80.789281,4
80.802412,7
80.815542,2
80.828672,2
80.841802,0
80.854933,4
80.868063,1
80.881193,2
80.894324,5
80.907454,1
80.920584,4
80.933714,0
80.946845,3
80.959975,1
80.973105,3
80.986236,8
80.999366,5
81.012496,7
81.025626,1
81.038757,1
81.051887,3
81.065017,3
81.078148,1
81.091278,2
81.104408,2
81.117538,3
81.130669,4
81.143799,4
81.156929,0
81.17006,2
81.18319,8
81.19632,2
81.20945,1
81.222581,1
81.235711,3
81.248841,1
81.261972,0
81.275102,1
81.288232,1
81.301362,3
81.314493,6
81.327623,8
81.340753,0
81.353884,1
81.367014,1
81.380144,5
81.393274,0
81.406405,2
81.419535,3
81.432665,2
81.445795,0
81.458926,2
81.472056,0
81.485186,4
81.498317,1
81.511447,0
81.524577,2
81.537707,7
81.550838,1
81.563968,4
81.577098,1
81.590229,4
81.603359,0
81.616489,3
81.629619,6
81.64275,1
81.65588,0
81.66901,2
81.682141,3
81.695271,1
81.708401,2
81.721531,1
81.734662,4
81.747792,2
81.760922,2
81.774053,2
81.787183,1
81.800313,3
81.813443,6
81.826574,1
81.839704,1
81.852834,2
81.865965,5
81.879095,0
81.892225,3
81.905355,4
81.918486,6
81.931616,1
81.944746,2
81.957877,2
81.971007,5
81.984137,5
81.997267,0
82.010398,2
82.023528,2
82.036658,0
82.049788,2
82.062919,1
82.076049,2
82.089179,0
82.10231,2
82.11544,4
82.12857,0
82.1417,1
82.154831,4
82.167961,2
82.181091,2
82.194222,2
82.207352,0
82.220482,0
82.233612,1
82.246743,3
82.259873,0
82.273003,2
82.286134,2
82.299264,5
82.312394,2
82.325524,5
82.338655,3
82.351785,3
82.364915,5
82.378046,0
82.391176,2
82.404306,2
82.417436,7
82.430567,2
82.443697,0
82.456827,3
82.469958,1
82.483088,0
82.496218,1
82.509348,1
82.522479,3
82.535609,5
82.548739,4
82.56187,2
82.575,3
82.58813,4
82.60126,3
82.614391,6
82.627521,3
82.640651,1
82.653781,2
82.666912,1
82.680042,0
82.693172,8
82.706303,2
82.719433,3
82.732563,0
82.745693,0
82.758824,3
82.771954,1
82.785084,3
82.798215,0
82.811345,5
82.824475,0
82.837605,1
82.850736,5
82.863866,0
82.876996,4
82.890127,0
82.903257,7
82.916387,1
82.929517,6
82.942648,2
82.955778,6
82.968908,2
82.982039,1
82.995169,3
83.008299,1
83.021429,3
83.03456,3
83.04769,2
83.06082,3
83.073951,1
83.087081,2
83.100211,5
83.113341,2
83.126472,3
83.139602,2
83.152732,3
83.165863,2
83.178993,2
83.192123,5
83.205253,1
83.218384,1
83.231514,0
83.244644,0
83.257774,0
83.270905,6
83.284035,3
83.297165,6
83.310296,2
83.323426,0
83.336556,6
83.349686,4
83.362817,2
83.375947,4
83.389077,2
83.402208,1
83.415338,4
83.428468,5
83.441598,4
83.454729,0
83.467859,0
83.480989,0
83.49412,6
83.50725,2
83.52038,3
83.53351,3
83.546641,1
83.559771,1
83.572901,2
83.586032,6
83.599162,3
83.612292,2
83.625422,2
83.638553,3
83.651683,2
83.664813,6
83.677944,0
83.691074,0
83.704204,6
83.717334,3
83.730465,1
83.743595,4
83.756725,5
83.769856,4
83.782986,2
83.796116,6
83.809246,0
83.822377,1
83.835507,2
83.848637,4
83.861767,1
83.874898,0
83.888028,3
83.901158,2
83.914289,0
83.927419,5
83.940549,1
83.953679,0
83.96681,2
83.97994,0
83.99307,0
84.006201,1
84.019331,1
84.032461,3
84.045591,1
84.058722,4
84.071852,0
84.084982,5
84.098113,3
84.111243,0
84.124373,6
84.137503,4
84.150634,4
84.163764,3
84.176894,4
84.190025,2
84.203155,3
84.216285,4
84.229415,1
84.242546,3
84.255676,3
84.268806,1
84.281937,2
84.295067,2
84.308197,2
84.321327,0
84.334458,5
84.347588,3
84.360718,1
84.373849,5
84.386979,3
84.400109,0
84.413239,0
84.42637,2
84.4395,1
84.45263,1
84.465761,0
84.478891,5
84.492021,5
84.505151,2
84.518282,5
84.531412,1
84.544542,2
84.557672,2
84.570803,1
84.583933,0
84.597063,0
84.610194,3
84.623324,0
84.636454,1
84.649584,1
84.662715,4
84.675845,2
84.688975,1
84.702106,1
84.715236,2
84.728366,3
84.741496,3
84.754627,0
84.767757,2
84.780887,0
84.794018,3
84.807148,2
84.820278,1
84.833408,0
84.846539,2
84.859669,0
84.872799,1
84.88593,4
84.89906,3
84.91219,0
84.92532,0
84.938451,5
84.951581,1
84.964711,5
84.977842,2
84.990972,2
85.004102,4
85.017232,1
85.030363,5
85.043493,0
85.056623,3
85.069754,2
85.082884,5
85.096014,4
85.109144,1
85.122275,1
85.135405,7
85.148535,3
85.161665,2
85.174796,0
85.187926,3
85.201056,2
85.214187,0
85.227317,1
85.240447,9
85.253577,1
85.266708,4
85.279838,4
85.292968,0
85.306099,4
85.319229,0
85.332359,3
85.345489,2
85.35862,3
85.37175,2
85.38488,5
85.398011,2
85.411141,2
85.424271,3
85.437401,0
85.450532,2
85.463662,1
85.476792,2
85.489923,1
85.503053,6
85.516183,2
85.529313,1
85.542444,3
85.555574,1
85.568704,6
85.581835,2
85.594965,3
85.608095,1
85.621225,1
85.634356,2
85.647486,5
85.660616,5
85.673747,0
85.686877,7
85.700007,2
85.713137,6
85.726268,0
85.739398,3
85.752528,2
85.765658,7
85.778789,3
85.791919,0
85.805049,3
85.81818,0
85.83131,1
85.84444,2
85.85757,6
85.870701,2
85.883831,5
85.896961,1
85.910092,1
85.923222,2
85.936352,1
85.949482,2
85.962613,1
85.975743,2
85.988873,6
86.002004,2
86.015134,1
86.028264,0
86.041394,4
86.054525,1
86.067655,8
86.080785,0
86.093916,2
86.107046,4
86.120176,1
86.133306,3
86.146437,0
86.159567,2
86.172697,2
86.185828,4
86.198958,1
86.212088,0
86.225218,0
86.238349,5
86.251479,4
86.264609,1
86.27774,0
86.29087,1
86.304,6
86.31713,0
86.330261,2
86.343391,6
86.356521,0
86.369651,6
86.382782,4
86.395912,2
86.409042,7
86.422173,5
86.435303,0
86.448433,4
86.461563,5
86.474694,2
86.487824,5
86.500954,6
86.514085,5
86.527215,0
86.540345,0
86.553475,1
86.566606,1
86.579736,2
86.592866,0
86.605997,1
86.619127,4
86.632257,3
86.645387,5
86.658518,1
86.671648,2
86.684778,1
86.697909,2
86.711039,0
86.724169,1
86.737299,3
86.75043,4
86.76356,3
86.77669,4
86.789821,2
86.802951,2
86.816081,1
86.829211,4
86.842342,0
86.855472,0
86.868602,4
86.881733,3
86.894863,4
86.907993,1
86.921123,4
86.934254,1
86.947384,0
86.960514,3
86.973644,2
86.986775,3
86.999905,1
87.013035,0
87.026166,3
87.039296,2
87.052426,0
87.065556,3
87.078687,2
87.091817,4
87.104947,2
87.118078,1
87.131208,0
87.144338,0
87.157468,5
87.170599,2
87.183729,4
87.196859,3
87.20999,1
87.22312,1
87.23625,5
87.24938,2
87.262511,4
87.275641,1
87.288771,0
87.301902,4
87.315032,1
87.328162,1
87.341292,1
87.354423,0
87.367553,3
87.380683,2
87.393814,4
87.406944,4
87.420074,0
87.433204,4
87.446335,1
87.459465,1
87.472595,0
87.485726,3
87.498856,2
87.511986,4
87.525116,3
87.538247,4
87.551377,0
87.564507,3
87.577637,1
87.590768,6
87.603898,0
87.617028,2
87.630159,5
87.643289,3
87.656419,1
87.669549,2
87.68268,2
87.69581,0
87.70894,6
87.722071,3
87.735201,4
87.748331,3
87.761461,2
87.774592,1
87.787722,8
87.800852,1
87.813983,2
87.827113,3
87.840243,5
87.853373,2
87.866504,2
87.879634,2
87.892764,2
87.905895,1
87.919025,2
87.932155,3
87.945285,4
87.958416,2
87.971546,0
87.984676,6
87.997807,0
88.010937,2
88.024067,2
88.037197,1
88.050328,2
88.063458,2
88.076588,2
88.089719,4
88.102849,2
88.115979,0
88.129109,2
88.14224,3
88.15537,7
88.1685,5
88.181631,2
88.194761,3
88.207891,0
88.221021,3
88.234152,2
88.247282,8
88.260412,5
88.273542,4
88.286673,2
88.299803,2
88.312933,5
88.326064,5
88.339194,1
88.352324,2
88.365454,1
88.378585,3
88.391715,2
88.404845,5
88.417976,2
88.431106,5
88.444236,4
88.457366,4
88.470497,3
88.483627,5
88.496757,2
88.509888,0
88.523018,0
88.536148,5
88.549278,3
88.562409,1
88.575539,4
88.588669,5
88.6018,2
88.61493,1
88.62806,3
88.64119,4
88.654321,9
88.667451,4
88.680581,1
88.693712,4
88.706842,4
88.719972,7
88.733102,3
88.746233,2
88.759363,4
88.772493,3
88.785624,4
88.798754,5
88.811884,6
88.825014,1
88.838145,2
88.851275,4
88.864405,4
88.877535,2
88.890666,2
88.903796,2
88.916926,5
88.930057,5
88.943187,6
88.956317,5
88.969447,4
88.982578,4
88.995708,2
89.008838,4
89.021969,0
89.035099,3
89.048229,3
89.061359,2
89.07449,7
89.08762,5
89.10075,0
89.113881,2
89.127011,9
89.140141,4
89.153271,9
89.166402,8
89.179532,7
89.192662,6
89.205793,4
89.218923,5
89.232053,2
89.245183,7
89.258314,9
89.271444,4
89.284574,11
89.297705,4
89.310835,4
89.323965,1
89.337095,5
89.350226,7
89.363356,10
89.376486,7
89.389617,6
89.402747,13
89.415877,5
89.429007,5
89.442138,2
89.455268,6
89.468398,5
89.481528,9
89.494659,9
89.507789,7
89.520919,10
89.53405,7
89.54718,2
89.56031,12
89.57344,7
89.586571,7
89.599701,4
89.612831,6
89.625962,6
89.639092,10
89.652222,8
89.665352,4
89.678483,8
89.691613,3
89.704743,10
89.717874,14
89.731004,4
89.744134,14
89.757264,12
89.770395,9
89.783525,10
89.796655,10
89.809786,6
89.822916,4
89.836046,10
89.849176,2
89.862307,4
89.875437,6
89.888567,6
89.901698,6
89.914828,10
89.927958,11
89.941088,11
89.954219,8
89.967349,9
89.980479,12
89.99361,12
